# Temperatura_=_20.0
# Concentracion g/m^3_=_10000.0
# C_Vs_to_Am_M_A/Vsm_=_237624902134.5593
# pendiente_HvsI_1/m_=_3716.3
# ordenada_HvsI_A/m_=_1297.0
# frecuencia_Hz_=_302208.2676343247
# Promedio de 78 ciclos

Tiempo_(s)	Campo_(V.s)	Magnetizacion_(V.s)	Campo_(kA/m)	Magnetizacion_(A/m)
0.000000e+00	-9.262624e-10	-2.685671e-09	-5.696369e+01	-6.372450e+02
1.000000e-08	-9.258791e-10	-2.683133e-09	-5.694011e+01	-6.371862e+02
2.000000e-08	-9.251908e-10	-2.683050e-09	-5.689778e+01	-6.368977e+02
3.000000e-08	-9.241965e-10	-2.679359e-09	-5.683663e+01	-6.363795e+02
4.000000e-08	-9.228852e-10	-2.673394e-09	-5.675599e+01	-6.356319e+02
5.000000e-08	-9.212589e-10	-2.668515e-09	-5.665598e+01	-6.346551e+02
6.000000e-08	-9.193276e-10	-2.660298e-09	-5.653720e+01	-6.334495e+02
7.000000e-08	-9.171230e-10	-2.652542e-09	-5.640162e+01	-6.320154e+02
8.000000e-08	-9.146284e-10	-2.645893e-09	-5.624821e+01	-6.303535e+02
9.000000e-08	-9.117745e-10	-2.640895e-09	-5.607270e+01	-6.284644e+02
1.000000e-07	-9.084991e-10	-2.652170e-09	-5.587126e+01	-6.263486e+02
1.100000e-07	-9.048624e-10	-2.644964e-09	-5.564761e+01	-6.240070e+02
1.200000e-07	-9.009523e-10	-2.612344e-09	-5.540715e+01	-6.214404e+02
1.300000e-07	-8.967740e-10	-2.595219e-09	-5.515019e+01	-6.186498e+02
1.400000e-07	-8.923177e-10	-2.578752e-09	-5.487613e+01	-6.156361e+02
1.500000e-07	-8.876029e-10	-2.551075e-09	-5.458618e+01	-6.124004e+02
1.600000e-07	-8.826025e-10	-2.503510e-09	-5.427866e+01	-6.089439e+02
1.700000e-07	-8.772142e-10	-2.495905e-09	-5.394729e+01	-6.052679e+02
1.800000e-07	-8.714804e-10	-2.545483e-09	-5.359467e+01	-6.013736e+02
1.900000e-07	-8.654454e-10	-2.496506e-09	-5.322353e+01	-5.972625e+02
2.000000e-07	-8.591073e-10	-2.511480e-09	-5.283374e+01	-5.929361e+02
2.100000e-07	-8.525255e-10	-2.510614e-09	-5.242897e+01	-5.883958e+02
2.200000e-07	-8.456235e-10	-2.452354e-09	-5.200451e+01	-5.836434e+02
2.300000e-07	-8.383820e-10	-2.456055e-09	-5.155917e+01	-5.786806e+02
2.400000e-07	-8.307887e-10	-2.403414e-09	-5.109219e+01	-5.735091e+02
2.500000e-07	-8.228325e-10	-2.403951e-09	-5.060290e+01	-5.681309e+02
2.600000e-07	-8.145734e-10	-2.385438e-09	-5.009498e+01	-5.625478e+02
2.700000e-07	-8.060145e-10	-2.365833e-09	-4.956861e+01	-5.567618e+02
2.800000e-07	-7.972106e-10	-2.340130e-09	-4.902719e+01	-5.507752e+02
2.900000e-07	-7.881319e-10	-2.295564e-09	-4.846886e+01	-5.445899e+02
3.000000e-07	-7.787612e-10	-2.269844e-09	-4.789258e+01	-5.382082e+02
3.100000e-07	-7.690831e-10	-2.227818e-09	-4.729739e+01	-5.316325e+02
3.200000e-07	-7.590824e-10	-2.219505e-09	-4.668236e+01	-5.248652e+02
3.300000e-07	-7.488179e-10	-2.184111e-09	-4.605111e+01	-5.179085e+02
3.400000e-07	-7.382927e-10	-2.155746e-09	-4.540383e+01	-5.107651e+02
3.500000e-07	-7.275170e-10	-2.139492e-09	-4.474114e+01	-5.034376e+02
3.600000e-07	-7.164774e-10	-2.094708e-09	-4.406222e+01	-4.959285e+02
3.700000e-07	-7.051651e-10	-2.049536e-09	-4.336653e+01	-4.882406e+02
3.800000e-07	-6.935755e-10	-2.009191e-09	-4.265379e+01	-4.803767e+02
3.900000e-07	-6.817085e-10	-1.983406e-09	-4.192399e+01	-4.723395e+02
4.000000e-07	-6.695914e-10	-1.953577e-09	-4.117880e+01	-4.641321e+02
4.100000e-07	-6.572401e-10	-1.923944e-09	-4.041922e+01	-4.557573e+02
4.200000e-07	-6.446779e-10	-1.887628e-09	-3.964666e+01	-4.472181e+02
4.300000e-07	-6.318999e-10	-1.845611e-09	-3.886083e+01	-4.385177e+02
4.400000e-07	-6.188934e-10	-1.806696e-09	-3.806095e+01	-4.296591e+02
4.500000e-07	-6.056503e-10	-1.762182e-09	-3.724652e+01	-4.206456e+02
4.600000e-07	-5.921808e-10	-1.716756e-09	-3.641817e+01	-4.114805e+02
4.700000e-07	-5.784984e-10	-1.677598e-09	-3.557672e+01	-4.021669e+02
4.800000e-07	-5.646034e-10	-1.644635e-09	-3.472220e+01	-3.927084e+02
4.900000e-07	-5.504830e-10	-1.611102e-09	-3.385382e+01	-3.831082e+02
5.000000e-07	-5.361406e-10	-1.565900e-09	-3.297179e+01	-3.733699e+02
5.100000e-07	-5.216001e-10	-1.516140e-09	-3.207757e+01	-3.634970e+02
5.200000e-07	-5.068712e-10	-1.470934e-09	-3.117176e+01	-3.534929e+02
5.300000e-07	-4.919626e-10	-1.428441e-09	-3.025490e+01	-3.433614e+02
5.400000e-07	-4.768761e-10	-1.384397e-09	-2.932711e+01	-3.331061e+02
5.500000e-07	-4.616151e-10	-1.338823e-09	-2.838858e+01	-3.227306e+02
5.600000e-07	-4.461814e-10	-1.295574e-09	-2.743944e+01	-3.122388e+02
5.700000e-07	-4.305814e-10	-1.250694e-09	-2.648006e+01	-3.016343e+02
5.800000e-07	-4.148148e-10	-1.204384e-09	-2.551044e+01	-2.909211e+02
5.900000e-07	-3.988963e-10	-1.152514e-09	-2.453147e+01	-2.801029e+02
6.000000e-07	-3.828356e-10	-1.100882e-09	-2.354376e+01	-2.691838e+02
6.100000e-07	-3.666289e-10	-1.055034e-09	-2.254708e+01	-2.581675e+02
6.200000e-07	-3.502832e-10	-1.012793e-09	-2.154184e+01	-2.470582e+02
6.300000e-07	-3.338084e-10	-9.668999e-10	-2.052867e+01	-2.358597e+02
6.400000e-07	-3.172164e-10	-9.155878e-10	-1.950829e+01	-2.245762e+02
6.500000e-07	-3.005110e-10	-8.673852e-10	-1.848093e+01	-2.132116e+02
6.600000e-07	-2.836985e-10	-8.192736e-10	-1.744698e+01	-2.017702e+02
6.700000e-07	-2.667864e-10	-7.691668e-10	-1.640692e+01	-1.902560e+02
6.800000e-07	-2.497848e-10	-7.162516e-10	-1.536135e+01	-1.786731e+02
6.900000e-07	-2.326981e-10	-6.652332e-10	-1.431054e+01	-1.670258e+02
7.000000e-07	-2.155323e-10	-6.164476e-10	-1.325487e+01	-1.553182e+02
7.100000e-07	-1.982991e-10	-5.682248e-10	-1.219505e+01	-1.435546e+02
7.200000e-07	-1.810049e-10	-5.168947e-10	-1.113149e+01	-1.317392e+02
7.300000e-07	-1.636485e-10	-4.632649e-10	-1.006410e+01	-1.198762e+02
7.400000e-07	-1.462261e-10	-4.136071e-10	-8.992643e+00	-1.079700e+02
7.500000e-07	-1.287428e-10	-3.658837e-10	-7.917451e+00	-9.602485e+01
7.600000e-07	-1.112118e-10	-3.159850e-10	-6.839322e+00	-8.404502e+01
7.700000e-07	-9.364845e-11	-2.616856e-10	-5.759201e+00	-7.203483e+01
7.800000e-07	-7.605717e-11	-2.076258e-10	-4.677365e+00	-5.999863e+01
7.900000e-07	-5.843944e-11	-1.559234e-10	-3.593902e+00	-4.794076e+01
8.000000e-07	-4.079870e-11	-1.051966e-10	-2.509025e+00	-3.586555e+01
8.100000e-07	-2.313945e-11	-5.230818e-11	-1.423009e+00	-2.377737e+01
8.200000e-07	-5.468474e-12	-6.536173e-13	-3.362722e-01	-1.168057e+01
8.300000e-07	1.220843e-11	4.843931e-11	7.508290e-01	4.204931e-01
8.400000e-07	2.988428e-11	9.728282e-11	1.837866e+00	1.252145e+01
8.500000e-07	4.755230e-11	1.475098e-10	2.924421e+00	2.461794e+01
8.600000e-07	6.520545e-11	2.016841e-10	4.010062e+00	3.670561e+01
8.700000e-07	8.283757e-11	2.557896e-10	5.094409e+00	4.878010e+01
8.800000e-07	1.004465e-10	3.063258e-10	6.177333e+00	6.083705e+01
8.900000e-07	1.180278e-10	3.550121e-10	7.258554e+00	7.287211e+01
9.000000e-07	1.355717e-10	4.062145e-10	8.337478e+00	8.488096e+01
9.100000e-07	1.530669e-10	4.550880e-10	9.413405e+00	9.685926e+01
9.200000e-07	1.705011e-10	5.017730e-10	1.048558e+01	1.088027e+02
9.300000e-07	1.878648e-10	5.501358e-10	1.155342e+01	1.207069e+02
9.400000e-07	2.051567e-10	6.005987e-10	1.261685e+01	1.325677e+02
9.500000e-07	2.223757e-10	6.540762e-10	1.367579e+01	1.443808e+02
9.600000e-07	2.395143e-10	7.068297e-10	1.472978e+01	1.561419e+02
9.700000e-07	2.565641e-10	7.547003e-10	1.577832e+01	1.678467e+02
9.800000e-07	2.735164e-10	7.992976e-10	1.682086e+01	1.794910e+02
9.900000e-07	2.903648e-10	8.474490e-10	1.785701e+01	1.910708e+02
1.000000e-06	3.071075e-10	8.956756e-10	1.888666e+01	2.025816e+02
1.010000e-06	3.237342e-10	9.406642e-10	1.990917e+01	2.140196e+02
1.020000e-06	3.402340e-10	9.856834e-10	2.092389e+01	2.253804e+02
1.030000e-06	3.566058e-10	1.031950e-09	2.193073e+01	2.366600e+02
1.040000e-06	3.728455e-10	1.080257e-09	2.292944e+01	2.478543e+02
1.050000e-06	3.889483e-10	1.127477e-09	2.391974e+01	2.589594e+02
1.060000e-06	4.049133e-10	1.172472e-09	2.490156e+01	2.699711e+02
1.070000e-06	4.207339e-10	1.216284e-09	2.587451e+01	2.808856e+02
1.080000e-06	4.364016e-10	1.262107e-09	2.683804e+01	2.916989e+02
1.090000e-06	4.519095e-10	1.307898e-09	2.779175e+01	3.024071e+02
1.100000e-06	4.672513e-10	1.349522e-09	2.873525e+01	3.130063e+02
1.110000e-06	4.824248e-10	1.390143e-09	2.966840e+01	3.234927e+02
1.120000e-06	4.974269e-10	1.432590e-09	3.059100e+01	3.338626e+02
1.130000e-06	5.122538e-10	1.477789e-09	3.150283e+01	3.441121e+02
1.140000e-06	5.269029e-10	1.519663e-09	3.240373e+01	3.542377e+02
1.150000e-06	5.413678e-10	1.557676e-09	3.329330e+01	3.642356e+02
1.160000e-06	5.556366e-10	1.595607e-09	3.417081e+01	3.741023e+02
1.170000e-06	5.696961e-10	1.636089e-09	3.503544e+01	3.838342e+02
1.180000e-06	5.835408e-10	1.676471e-09	3.588687e+01	3.934277e+02
1.190000e-06	5.971703e-10	1.713259e-09	3.672506e+01	4.028795e+02
1.200000e-06	6.105855e-10	1.749621e-09	3.755008e+01	4.121861e+02
1.210000e-06	6.237827e-10	1.787609e-09	3.836168e+01	4.213442e+02
1.220000e-06	6.367558e-10	1.825520e-09	3.915950e+01	4.303504e+02
1.230000e-06	6.495004e-10	1.858580e-09	3.994328e+01	4.392016e+02
1.240000e-06	6.620134e-10	1.887658e-09	4.071281e+01	4.478944e+02
1.250000e-06	6.742905e-10	1.918189e-09	4.146783e+01	4.564259e+02
1.260000e-06	6.863217e-10	1.952329e-09	4.220773e+01	4.647929e+02
1.270000e-06	6.980940e-10	1.985787e-09	4.293171e+01	4.729924e+02
1.280000e-06	7.095924e-10	2.015836e-09	4.363884e+01	4.810214e+02
1.290000e-06	7.208134e-10	2.045864e-09	4.432891e+01	4.888771e+02
1.300000e-06	7.317689e-10	2.077420e-09	4.500266e+01	4.965566e+02
1.310000e-06	7.424602e-10	2.107544e-09	4.566016e+01	5.040572e+02
1.320000e-06	7.528793e-10	2.133755e-09	4.630091e+01	5.113761e+02
1.330000e-06	7.630234e-10	2.157806e-09	4.692476e+01	5.185107e+02
1.340000e-06	7.728856e-10	2.183235e-09	4.753127e+01	5.254584e+02
1.350000e-06	7.824628e-10	2.211201e-09	4.812025e+01	5.322168e+02
1.360000e-06	7.917615e-10	2.237985e-09	4.869211e+01	5.387834e+02
1.370000e-06	8.007804e-10	2.261276e-09	4.924676e+01	5.451558e+02
1.380000e-06	8.095202e-10	2.284382e-09	4.978424e+01	5.513318e+02
1.390000e-06	8.179865e-10	2.308326e-09	5.030490e+01	5.573090e+02
1.400000e-06	8.261672e-10	2.331571e-09	5.080800e+01	5.630854e+02
1.410000e-06	8.340458e-10	2.350951e-09	5.129252e+01	5.686589e+02
1.420000e-06	8.416112e-10	2.368926e-09	5.175779e+01	5.740274e+02
1.430000e-06	8.488649e-10	2.387385e-09	5.220387e+01	5.791891e+02
1.440000e-06	8.558216e-10	2.407247e-09	5.263170e+01	5.841420e+02
1.450000e-06	8.624772e-10	2.426435e-09	5.304101e+01	5.888844e+02
1.460000e-06	8.688300e-10	2.442312e-09	5.343169e+01	5.934146e+02
1.470000e-06	8.748844e-10	2.455951e-09	5.380403e+01	5.977309e+02
1.480000e-06	8.806286e-10	2.470228e-09	5.415729e+01	6.018318e+02
1.490000e-06	8.860459e-10	2.485145e-09	5.449044e+01	6.057158e+02
1.500000e-06	8.911120e-10	2.497305e-09	5.480200e+01	6.093815e+02
1.510000e-06	8.958383e-10	2.508541e-09	5.509266e+01	6.128275e+02
1.520000e-06	9.002426e-10	2.520397e-09	5.536351e+01	6.160528e+02
1.530000e-06	9.043182e-10	2.533588e-09	5.561416e+01	6.190559e+02
1.540000e-06	9.080742e-10	2.544216e-09	5.584515e+01	6.218360e+02
1.550000e-06	9.115072e-10	2.551242e-09	5.605627e+01	6.243920e+02
1.560000e-06	9.146173e-10	2.555788e-09	5.624753e+01	6.267230e+02
1.570000e-06	9.174007e-10	2.561363e-09	5.641871e+01	6.288280e+02
1.580000e-06	9.198451e-10	2.569219e-09	5.656903e+01	6.307065e+02
1.590000e-06	9.219663e-10	2.576564e-09	5.669949e+01	6.323576e+02
1.600000e-06	9.237617e-10	2.583596e-09	5.680990e+01	6.337809e+02
1.610000e-06	9.252111e-10	2.590257e-09	5.689903e+01	6.349757e+02
1.620000e-06	9.262978e-10	2.595639e-09	5.696586e+01	6.359417e+02
1.630000e-06	9.270342e-10	2.596962e-09	5.701115e+01	6.366785e+02
1.640000e-06	9.274440e-10	2.594602e-09	5.703636e+01	6.371858e+02
1.650000e-06	9.275277e-10	2.593128e-09	5.704150e+01	6.374635e+02
1.660000e-06	9.273008e-10	2.592744e-09	5.702755e+01	6.375114e+02
1.670000e-06	9.267644e-10	2.592946e-09	5.699456e+01	6.373296e+02
1.680000e-06	9.259192e-10	2.588662e-09	5.694258e+01	6.369181e+02
1.690000e-06	9.247556e-10	2.585087e-09	5.687102e+01	6.362770e+02
1.700000e-06	9.232734e-10	2.581869e-09	5.677987e+01	6.354067e+02
1.710000e-06	9.215034e-10	2.576988e-09	5.667101e+01	6.343073e+02
1.720000e-06	9.194448e-10	2.571769e-09	5.654441e+01	6.329794e+02
1.730000e-06	9.171044e-10	2.564825e-09	5.640048e+01	6.314233e+02
1.740000e-06	9.144801e-10	2.551612e-09	5.623909e+01	6.296396e+02
1.750000e-06	9.114486e-10	2.513167e-09	5.605266e+01	6.276290e+02
1.760000e-06	9.079362e-10	2.506259e-09	5.583665e+01	6.253922e+02
1.770000e-06	9.040466e-10	2.514575e-09	5.559744e+01	6.229301e+02
1.780000e-06	8.998792e-10	2.501122e-09	5.534115e+01	6.202434e+02
1.790000e-06	8.954653e-10	2.499432e-09	5.506970e+01	6.173332e+02
1.800000e-06	8.908579e-10	2.526019e-09	5.478635e+01	6.142005e+02
1.810000e-06	8.860511e-10	2.539594e-09	5.449074e+01	6.108465e+02
1.820000e-06	8.808658e-10	2.473805e-09	5.417186e+01	6.072723e+02
1.830000e-06	8.753551e-10	2.494641e-09	5.383296e+01	6.034792e+02
1.840000e-06	8.695437e-10	2.468236e-09	5.347557e+01	5.994687e+02
1.850000e-06	8.633067e-10	2.411177e-09	5.309200e+01	5.952421e+02
1.860000e-06	8.567769e-10	2.438123e-09	5.269043e+01	5.908010e+02
1.870000e-06	8.498872e-10	2.406062e-09	5.226672e+01	5.861470e+02
1.880000e-06	8.427150e-10	2.442499e-09	5.182564e+01	5.812817e+02
1.890000e-06	8.352808e-10	2.408920e-09	5.136845e+01	5.762070e+02
1.900000e-06	8.274536e-10	2.377927e-09	5.088708e+01	5.709245e+02
1.910000e-06	8.193597e-10	2.390346e-09	5.038932e+01	5.654364e+02
1.920000e-06	8.109081e-10	2.351495e-09	4.986956e+01	5.597444e+02
1.930000e-06	8.021571e-10	2.367724e-09	4.933138e+01	5.538507e+02
1.940000e-06	7.931159e-10	2.328731e-09	4.877537e+01	5.477575e+02
1.950000e-06	7.837685e-10	2.332647e-09	4.820052e+01	5.414668e+02
1.960000e-06	7.741935e-10	2.310255e-09	4.761167e+01	5.349810e+02
1.970000e-06	7.643135e-10	2.267155e-09	4.700406e+01	5.283023e+02
1.980000e-06	7.541873e-10	2.257096e-09	4.638132e+01	5.214333e+02
1.990000e-06	7.437635e-10	2.199449e-09	4.574027e+01	5.143764e+02
2.000000e-06	7.330593e-10	2.192504e-09	4.508198e+01	5.071341e+02
2.010000e-06	7.221033e-10	2.161110e-09	4.440820e+01	4.997091e+02
2.020000e-06	7.108661e-10	2.142807e-09	4.371713e+01	4.921039e+02
2.030000e-06	6.993828e-10	2.109904e-09	4.301092e+01	4.843214e+02
2.040000e-06	6.876128e-10	2.067694e-09	4.228709e+01	4.763644e+02
2.050000e-06	6.756006e-10	2.035611e-09	4.154836e+01	4.682357e+02
2.060000e-06	6.633468e-10	1.984635e-09	4.079477e+01	4.599383e+02
2.070000e-06	6.508524e-10	1.956903e-09	4.002638e+01	4.514752e+02
2.080000e-06	6.381208e-10	1.917791e-09	3.924340e+01	4.428493e+02
2.090000e-06	6.251550e-10	1.894255e-09	3.844603e+01	4.340638e+02
2.100000e-06	6.119844e-10	1.861839e-09	3.763605e+01	4.251220e+02
2.110000e-06	5.986065e-10	1.823126e-09	3.681334e+01	4.160269e+02
2.120000e-06	5.850229e-10	1.780812e-09	3.597797e+01	4.067819e+02
2.130000e-06	5.712161e-10	1.733241e-09	3.512887e+01	3.973903e+02
2.140000e-06	5.571862e-10	1.693831e-09	3.426606e+01	3.878555e+02
2.150000e-06	5.429300e-10	1.654915e-09	3.338932e+01	3.781810e+02
2.160000e-06	5.284640e-10	1.620604e-09	3.249968e+01	3.683702e+02
2.170000e-06	5.138041e-10	1.580367e-09	3.159812e+01	3.584266e+02
2.180000e-06	4.989638e-10	1.539288e-09	3.068546e+01	3.483539e+02
2.190000e-06	4.839502e-10	1.493500e-09	2.976215e+01	3.381557e+02
2.200000e-06	4.687569e-10	1.445816e-09	2.882779e+01	3.278356e+02
2.210000e-06	4.533792e-10	1.399120e-09	2.788208e+01	3.173974e+02
2.220000e-06	4.378179e-10	1.352880e-09	2.692509e+01	3.068448e+02
2.230000e-06	4.220929e-10	1.308336e-09	2.595802e+01	2.961817e+02
2.240000e-06	4.062168e-10	1.265342e-09	2.498167e+01	2.854119e+02
2.250000e-06	3.901996e-10	1.221909e-09	2.399664e+01	2.745392e+02
2.260000e-06	3.740357e-10	1.175163e-09	2.300258e+01	2.635676e+02
2.270000e-06	3.577329e-10	1.126634e-09	2.199998e+01	2.525010e+02
2.280000e-06	3.412979e-10	1.078338e-09	2.098926e+01	2.413435e+02
2.290000e-06	3.247352e-10	1.030972e-09	1.997068e+01	2.300990e+02
2.300000e-06	3.080598e-10	9.839554e-10	1.894516e+01	2.187717e+02
2.310000e-06	2.912801e-10	9.372343e-10	1.791324e+01	2.073655e+02
2.320000e-06	2.744016e-10	8.899435e-10	1.687524e+01	1.958846e+02
2.330000e-06	2.574308e-10	8.409280e-10	1.583156e+01	1.843332e+02
2.340000e-06	2.403705e-10	7.905159e-10	1.478237e+01	1.727153e+02
2.350000e-06	2.232219e-10	7.403528e-10	1.372776e+01	1.610353e+02
2.360000e-06	2.060023e-10	6.890199e-10	1.266878e+01	1.492972e+02
2.370000e-06	1.887223e-10	6.388669e-10	1.160609e+01	1.375054e+02
2.380000e-06	1.713856e-10	5.926613e-10	1.053991e+01	1.256641e+02
2.390000e-06	1.539948e-10	5.457053e-10	9.470402e+00	1.137775e+02
2.400000e-06	1.365562e-10	4.968979e-10	8.397953e+00	1.018499e+02
2.410000e-06	1.190783e-10	4.484280e-10	7.323090e+00	8.988572e+01
2.420000e-06	1.015562e-10	3.968727e-10	6.245507e+00	7.788915e+01
2.430000e-06	8.398031e-11	3.421837e-10	5.164621e+00	6.586457e+01
2.440000e-06	6.636888e-11	2.876910e-10	4.081547e+00	5.381628e+01
2.450000e-06	4.874099e-11	2.331769e-10	2.997460e+00	4.174865e+01
2.460000e-06	3.109008e-11	1.794613e-10	1.911958e+00	2.966603e+01
2.470000e-06	1.341589e-11	1.270397e-10	8.250247e-01	1.757275e+01
2.480000e-06	-4.269641e-12	7.597849e-11	-2.626062e-01	5.473197e+00
2.490000e-06	-2.195343e-11	2.436306e-11	-1.350130e+00	-6.628282e+00
2.500000e-06	-3.962734e-11	-2.843804e-11	-2.437046e+00	-1.872732e+01
2.510000e-06	-5.728689e-11	-8.158834e-11	-3.523078e+00	-3.081956e+01
2.520000e-06	-7.492927e-11	-1.349527e-10	-4.608056e+00	-4.290063e+01
2.530000e-06	-9.254613e-11	-1.877799e-10	-5.691464e+00	-5.496620e+01
2.540000e-06	-1.101248e-10	-2.414274e-10	-6.772523e+00	-6.701189e+01
2.550000e-06	-1.276579e-10	-2.960479e-10	-7.850779e+00	-7.903338e+01
2.560000e-06	-1.451425e-10	-3.506836e-10	-8.926054e+00	-9.102633e+01
2.570000e-06	-1.625740e-10	-4.029315e-10	-9.998063e+00	-1.029864e+02
2.580000e-06	-1.799445e-10	-4.534444e-10	-1.106632e+01	-1.149093e+02
2.590000e-06	-1.972497e-10	-5.042114e-10	-1.213057e+01	-1.267908e+02
2.600000e-06	-2.144838e-10	-5.556475e-10	-1.319044e+01	-1.386264e+02
2.610000e-06	-2.316359e-10	-6.073799e-10	-1.424526e+01	-1.504121e+02
2.620000e-06	-2.487008e-10	-6.578401e-10	-1.529473e+01	-1.621435e+02
2.630000e-06	-2.656777e-10	-7.085515e-10	-1.633879e+01	-1.738164e+02
2.640000e-06	-2.825590e-10	-7.598008e-10	-1.737696e+01	-1.854266e+02
2.650000e-06	-2.993376e-10	-8.110627e-10	-1.840882e+01	-1.969698e+02
2.660000e-06	-3.160097e-10	-8.615546e-10	-1.943413e+01	-2.084421e+02
2.670000e-06	-3.325670e-10	-9.114145e-10	-2.045238e+01	-2.198391e+02
2.680000e-06	-3.489989e-10	-9.618469e-10	-2.146291e+01	-2.311569e+02
2.690000e-06	-3.653013e-10	-1.012092e-09	-2.246548e+01	-2.423912e+02
2.700000e-06	-3.814675e-10	-1.062162e-09	-2.345968e+01	-2.535382e+02
2.710000e-06	-3.974866e-10	-1.111153e-09	-2.444483e+01	-2.645937e+02
2.720000e-06	-4.133592e-10	-1.159358e-09	-2.542097e+01	-2.755537e+02
2.730000e-06	-4.290840e-10	-1.208458e-09	-2.638802e+01	-2.864144e+02
2.740000e-06	-4.446514e-10	-1.258556e-09	-2.734539e+01	-2.971718e+02
2.750000e-06	-4.600544e-10	-1.307997e-09	-2.829265e+01	-3.078220e+02
2.760000e-06	-4.752877e-10	-1.356408e-09	-2.922947e+01	-3.183612e+02
2.770000e-06	-4.903521e-10	-1.402632e-09	-3.015591e+01	-3.287856e+02
2.780000e-06	-5.052488e-10	-1.446686e-09	-3.107203e+01	-3.390914e+02
2.790000e-06	-5.199732e-10	-1.491414e-09	-3.197756e+01	-3.492749e+02
2.800000e-06	-5.345146e-10	-1.536796e-09	-3.287184e+01	-3.593325e+02
2.810000e-06	-5.488602e-10	-1.581949e-09	-3.375407e+01	-3.692605e+02
2.820000e-06	-5.630027e-10	-1.627018e-09	-3.462381e+01	-3.790553e+02
2.830000e-06	-5.769379e-10	-1.672720e-09	-3.548080e+01	-3.887135e+02
2.840000e-06	-5.906612e-10	-1.717061e-09	-3.632476e+01	-3.982314e+02
2.850000e-06	-6.041682e-10	-1.759224e-09	-3.715542e+01	-4.076058e+02
2.860000e-06	-6.174579e-10	-1.799377e-09	-3.797272e+01	-4.168331e+02
2.870000e-06	-6.305273e-10	-1.838719e-09	-3.877646e+01	-4.259102e+02
2.880000e-06	-6.433694e-10	-1.879408e-09	-3.956623e+01	-4.348337e+02
2.890000e-06	-6.559776e-10	-1.919551e-09	-4.034162e+01	-4.436004e+02
2.900000e-06	-6.683467e-10	-1.959850e-09	-4.110230e+01	-4.522071e+02
2.910000e-06	-6.804783e-10	-1.999221e-09	-4.184837e+01	-4.606508e+02
2.920000e-06	-6.923676e-10	-2.036905e-09	-4.257954e+01	-4.689283e+02
2.930000e-06	-7.039882e-10	-2.073119e-09	-4.329419e+01	-4.770368e+02
2.940000e-06	-7.153094e-10	-2.106323e-09	-4.399042e+01	-4.849732e+02
